s,A(s),B(s)
0.0,-2.0,0.0
0.001001001001001001,-1.9999975276571949,0.0031447360951691898
0.002002002002002002,-1.9999901106348918,0.00628946441547272
0.003003003003003003,-1.999977748951428,0.009434177186064156
0.004004004004004004,-1.9999604426373665,0.012578866632135501
0.005005005005005005,-1.9999381917354937,0.01572352497893643
0.006006006006006006,-1.999910996300822,0.01886814445179351
0.007007007007007007,-1.9998788564005874,0.0220127172761294
0.008008008008008008,-1.999841772114251,0.025157235677482116
0.009009009009009009,-1.9997997435334978,0.028301691881524205
0.01001001001001001,-1.9997527707622367,0.031446078114081996
0.011011011011011011,-1.9997008539166008,0.034590386601154814
0.012012012012012012,-1.9996439931249463,0.03773460956893418
0.013013013013013013,-1.9995821885278524,0.040878739243823084
0.014014014014014014,-1.9995154402781212,0.044022767852455125
0.015015015015015015,-1.9994437485407774,0.047166687621713804
0.016016016016016016,-1.9993671134930677,0.050310490778751694
0.01701701701701702,-1.9992855353244599,0.05345416955100969
0.018018018018018018,-1.9991990142366434,0.05659771616623618
0.01901901901901902,-1.9991075504435276,0.05974112285250633
0.02002002002002002,-1.999011144171243,0.0628843818382412
0.021021021021021023,-1.9989097956581385,0.06602748535222709
0.022022022022022022,-1.9988035051547826,0.06917042562363462
0.023023023023023025,-1.9986922729239618,0.07231319488203804
0.024024024024024024,-1.99857609924068,0.07545578535743436
0.025025025025025027,-1.9984549843921589,0.07859818928026265
0.026026026026026026,-1.9983289286778356,0.08174039888142316
0.02702702702702703,-1.998197932409363,0.08488240639229662
0.028028028028028028,-1.9980619959106087,0.08802420404476333
0.02902902902902903,-1.997921119517655,0.0911657840712225
0.03003003003003003,-1.9977753035787957,0.09430713870461134
0.031031031031031032,-1.9976245484545383,0.09744826017842433
0.03203203203203203,-1.9974688545176011,0.10058914072673236
0.03303303303303303,-1.9973082221529128,0.10372977258420206
0.03403403403403404,-1.9971426517576119,0.10687014798611486
0.035035035035035036,-1.9969721437410448,0.11001025916838617
0.036036036036036036,-1.9967966985247663,0.11315009836758469
0.037037037037037035,-1.9966163165425364,0.11628965782095164
0.03803803803803804,-1.9964309982403217,0.11942892976641978
0.03903903903903904,-1.9962407440762926,0.12256790644263266
0.04004004004004004,-1.9960455545208222,0.12570658008896388
0.04104104104104104,-1.9958454300564865,0.12884494294553628
0.042042042042042045,-1.9956403711780615,0.131982987253241
0.043043043043043044,-1.995430378392523,0.13512070525375677
0.044044044044044044,-1.9952154522190453,0.13825808918956908
0.04504504504504504,-1.9949955931889993,0.1413951313039893
0.04604604604604605,-1.9947708018459525,0.144531823841174
0.04704704704704705,-1.9945410787456654,0.1476681590461439
0.04804804804804805,-1.9943064244560929,0.15080412916480318
0.04904904904904905,-1.9940668395573804,0.15393972644395876
0.05005005005005005,-1.993822324641864,0.15707494313133924
0.05105105105105105,-1.9935728803140687,0.16020977147561416
0.05205205205205205,-1.9933185071907058,0.16334420372641328
0.05305305305305305,-1.9930592059006735,0.16647823213434554
0.05405405405405406,-1.992794977085053,0.1696118489510184
0.055055055055055056,-1.9925258213971089,0.17274504642905678
0.056056056056056056,-1.9922517395022858,0.1758778168221225
0.057057057057057055,-1.9919727320782088,0.17901015238493323
0.05805805805805806,-1.9916887998146793,0.18214204537328163
0.05905905905905906,-1.9913999434136753,0.18527348804405464
0.06006006006006006,-1.9911061635893492,0.1884044726552525
0.06106106106106106,-1.990807461068025,0.19153499146600791
0.062062062062062065,-1.9905038365881982,0.19466503673660526
0.06306306306306306,-1.990195290900532,0.19779460072849955
0.06406406406406406,-1.9898818247678576,0.2009236757043359
0.06506506506506507,-1.9895634389651706,0.20405225392796822
0.06606606606606606,-1.9892401342796298,0.20718032766447858
0.06706706706706707,-1.9889119115105551,0.21030788918019658
0.06806806806806807,-1.9885787714694259,0.21343493074271783
0.06906906906906907,-1.9882407149798786,0.21656144462092364
0.07007007007007007,-1.9878977428777045,0.21968742308500006
0.07107107107107107,-1.9875498560108484,0.2228128584064565
0.07207207207207207,-1.9871970552394058,0.22593774285814566
0.07307307307307308,-1.9868393414356214,0.22906206871428184
0.07407407407407407,-1.986476715483886,0.23218582825046044
0.07507507507507508,-1.9861091782807354,0.23530901374367716
0.07607607607607608,-1.9857367307348475,0.23843161747234673
0.07707707707707707,-1.9853593737670405,0.24155363171632224
0.07807807807807808,-1.98497710831027,0.24467504875691443
0.07907907907907907,-1.9845899353096275,0.2477958608769101
0.08008008008008008,-1.984197855722337,0.25091606036059205
0.08108108108108109,-1.9838008705177537,0.2540356394937575
0.08208208208208208,-1.9833989806773615,0.25715459056373735
0.08308308308308308,-1.9829921871947696,0.26027290585941537
0.08408408408408409,-1.9825804910757108,0.26339057767124724
0.08508508508508508,-1.9821638933380392,0.2665075982912794
0.08608608608608609,-1.9817423950117274,0.2696239600131684
0.08708708708708708,-1.9813159971388634,0.2727396551321998
0.08808808808808809,-1.9808847007736492,0.27585467594530716
0.0890890890890891,-1.980448506982397,0.27896901475109115
0.09009009009009009,-1.9800074168435275,0.2820826638498386
0.09109109109109109,-1.979561431447567,0.2851956155435417
0.0920920920920921,-1.979110551897144,0.2883078621359166
0.09309309309309309,-1.978654779306987,0.29141939593242283
0.0940940940940941,-1.9781941148039228,0.29453020924028234
0.09509509509509509,-1.9777285595268714,0.29764029436849804
0.0960960960960961,-1.9772581146268453,0.3007496436278734
0.0970970970970971,-1.9767827812669456,0.3038582493310312
0.0980980980980981,-1.9763025606223592,0.3069661037924325
0.0990990990990991,-1.9758174538803561,0.31007319932839567
0.1001001001001001,-1.9753274622402865,0.31317952825711537
0.1011011011011011,-1.9748325869135779,0.3162850828986817
0.1021021021021021,-1.9743328291237314,0.3193898555750988
0.1031031031031031,-1.97382819010632,0.3224938386103045
0.1041041041041041,-1.973318671108984,0.32559702433018867
0.10510510510510511,-1.972804273391429,0.32869940506261225
0.1061061061061061,-1.972284998225423,0.3318009731374267
0.10710710710710711,-1.9717608468947916,0.33490172088649245
0.10810810810810811,-1.971231820695417,0.3380016406436982
0.1091091091091091,-1.9706979209352329,0.3411007247449794
0.11011011011011011,-1.970159148934223,0.34419896552833806
0.1111111111111111,-1.969615506024416,0.34729635533386066
0.11211211211211211,-1.969066993549884,0.35039288650373795
0.11311311311311312,-1.9685136128667373,0.3534885513822833
0.11411411411411411,-1.967955365343123,0.3565833423159519
0.11511511511511512,-1.9673922523592202,0.3596772516533597
0.11611611611611612,-1.9668242753072374,0.3627702717453022
0.11711711711711711,-1.9662514355914085,0.36586239494477335
0.11811811811811812,-1.9656737346279896,0.36895361360698464
0.11911911911911911,-1.9650911738452554,0.372043920089384
0.12012012012012012,-1.9645037546834963,0.3751333067516743
0.12112112112112113,-1.9639114785950134,0.3782217659558326
0.12212212212212212,-1.9633143470441163,0.38130929006612907
0.12312312312312312,-1.962712361507119,0.3843958714491457
0.12412412412412413,-1.9621055234723361,0.3874815024737953
0.12512512512512514,-1.9614938344400792,0.39056617551134004
0.12612612612612611,-1.9608772959226535,0.39364988293541076
0.12712712712712712,-1.9602559094443532,0.39673261712202573
0.12812812812812813,-1.959629676541459,0.39981437044960916
0.12912912912912913,-1.958998598762233,0.40289513529901044
0.13013013013013014,-1.958362677666916,0.4059749040535227
0.13113113113113112,-1.957721914827723,0.40905366909890173
0.13213213213213212,-1.9570763118288392,0.4121314228233851
0.13313313313313313,-1.9564258702664168,0.41520815761771046
0.13413413413413414,-1.9557705917485702,0.4182838658751348
0.13513513513513514,-1.9551104778953723,0.4213585399914526
0.13613613613613615,-1.9544455303388513,0.42443217236501585
0.13713713713713713,-1.9537757507229851,0.42750475539675126
0.13813813813813813,-1.9531011407036987,0.4305762814901806
0.13913913913913914,-1.9524217019488592,0.43364674305143835
0.14014014014014015,-1.9517374361382722,0.4367161324892909
0.14114114114114115,-1.9510483449636773,0.43978444221515534
0.14214214214214213,-1.9503544301287443,0.4428516646431182
0.14314314314314314,-1.9496556933490685,0.4459177921899543
0.14414414414414414,-1.9489521363521665,0.44898281727514516
0.14514514514514515,-1.9482437608774725,0.4520467323208981
0.14614614614614616,-1.9475305686763336,0.4551095297521648
0.14714714714714713,-1.9468125615120053,0.4581712019966599
0.14814814814814814,-1.9460897411596476,0.4612317414848803
0.14914914914914915,-1.9453621094063203,0.46429114065012317
0.15015015015015015,-1.944629668050978,0.4673493919285049
0.15115115115115116,-1.9438924189044673,0.47040648775898
0.15215215215215216,-1.9431503637895204,0.4734624205833595
0.15315315315315314,-1.9424035045407526,0.47651718284633
0.15415415415415415,-1.9416518430046554,0.4795707669954719
0.15515515515515516,-1.940895381039594,0.4826231654812785
0.15615615615615616,-1.9401341205158016,0.48567437075717435
0.15715715715715717,-1.9393680633153751,0.4887243752795339
0.15815815815815815,-1.938597211332271,0.4917731715077005
0.15915915915915915,-1.937821566472299,0.4948207519040048
0.16016016016016016,-1.9370411306531197,0.4978671089337832
0.16116116116116116,-1.9362559058042375,0.5009122350653971
0.16216216216216217,-1.9354658938669977,0.5039561227702504
0.16316316316316315,-1.9346710967945804,0.5069987645228093
0.16416416416416416,-1.9338715165519966,0.5100401528006209
0.16516516516516516,-1.9330671551160827,0.5130802800843302
0.16616616616616617,-1.932258014475496,0.5161191388577004
0.16716716716716717,-1.9314440966307092,0.5191567216076313
0.16816816816816818,-1.9306254035940067,0.5221930208241765
0.16916916916916916,-1.9298019373894781,0.5252280290005638
0.17017017017017017,-1.928973700053014,0.5282617386332126
0.17117117117117117,-1.9281406936323013,0.5312941422217525
0.17217217217217218,-1.9273029201868173,0.5343252322690426
0.17317317317317318,-1.9264603817878252,0.5373550012811892
0.17417417417417416,-1.9256130805183687,0.5403834417675641
0.17517517517517517,-1.924761018473267,0.5434105462408251
0.17617617617617617,-1.9239041977591096,0.5464363072169317
0.17717717717717718,-1.923042620494251,0.5494607172151657
0.1781781781781782,-1.9221762888088054,0.5524837687581488
0.17917917917917917,-1.9213052048446422,0.555505454371861
0.18018018018018017,-1.920429370755379,0.5585257665856601
0.18118118118118118,-1.919548788706378,0.5615446979322987
0.18218218218218218,-1.9186634608747404,0.5645622409479434
0.1831831831831832,-1.9177733894492994,0.5675783881721936
0.1841841841841842,-1.9168785766306173,0.5705931321480995
0.18518518518518517,-1.9159790246309778,0.5736064654221804
0.18618618618618618,-1.9150747356743818,0.5766183805444436
0.1871871871871872,-1.9141657119965416,0.5796288700684024
0.1881881881881882,-1.9132519558448755,0.5826379265510944
0.1891891891891892,-1.912333469478502,0.5856455425531008
0.19019019019019018,-1.911410255168234,0.5886517106385636
0.19119119119119118,-1.9104823151965737,0.5916564233752049
0.1921921921921922,-1.909549651857707,0.5946596733343446
0.1931931931931932,-1.9086122674574977,0.5976614530909196
0.1941941941941942,-1.9076701643134808,0.600661755223501
0.19519519519519518,-1.9067233447548586,0.6036605723143134
0.1961961961961962,-1.9057718111224935,0.6066578969492533
0.1971971971971972,-1.904815565768903,0.6096537217179063
0.1981981981981982,-1.903854611058253,0.6126480392135668
0.1991991991991992,-1.9028889493663534,0.6156408420332555
0.2002002002002002,-1.9019185830806506,0.6186321227777378
0.2012012012012012,-1.9009435146002231,0.6216218740515422
0.2022022022022022,-1.8999637463357741,0.6246100884629789
0.2032032032032032,-1.8989792807096266,0.6275967586241573
0.2042042042042042,-1.8979901201557174,0.6305818771510049
0.20520520520520522,-1.8969962671195904,0.6335654366632856
0.2062062062062062,-1.895997724058391,0.636547429784617
0.2072072072072072,-1.8949944934408596,0.6395278491424905
0.2082082082082082,-1.8939865777473266,0.6425066873682874
0.2092092092092092,-1.892973979469705,0.6454839370972985
0.21021021021021022,-1.8919567011114848,0.6484595909687418
0.21121121121121122,-1.8909347451877268,0.6514336416257811
0.2122122122122122,-1.8899081142250567,0.6544060817155432
0.2132132132132132,-1.8888768107616578,0.6573769038891377
0.21421421421421422,-1.887840837347266,0.6603461008016736
0.21521521521521522,-1.8868001965431624,0.6633136651122781
0.21621621621621623,-1.8857548909221684,0.6662795894841151
0.2172172172172172,-1.8847049230686372,0.6692438665844028
0.2182182182182182,-1.8836502955784498,0.672206489084432
0.21921921921921922,-1.8825910110590065,0.6751674496595845
0.22022022022022023,-1.8815270721292219,0.6781267409893504
0.22122122122122123,-1.8804584814195178,0.6810843557573473
0.2222222222222222,-1.8793852415718169,0.6840402866513374
0.22322322322322322,-1.8783073552395355,0.6869945263632464
0.22422422422422422,-1.8772248250875787,0.6899470675891809
0.22522522522522523,-1.8761376537923318,0.6928979030294471
0.22622622622622623,-1.8750458440416549,0.6958470253885678
0.22722722722722724,-1.873949398534876,0.6987944273753018
0.22822822822822822,-1.8728483199827846,0.701740101702661
0.22922922922922923,-1.871742611107624,0.7046840410879286
0.23023023023023023,-1.8706322746430857,0.7076262382526773
0.23123123123123124,-1.8695173133343022,0.7105666859227873
0.23223223223223224,-1.8683977299378396,0.7135053768284635
0.23323323323323322,-1.8672735272216923,0.7164423037042549
0.23423423423423423,-1.8661447079652747,0.7193774592890714
0.23523523523523523,-1.865011274959415,0.7223108363262022
0.23623623623623624,-1.863873231006348,0.7252424275633338
0.23723723723723725,-1.8627305789197084,0.7281722257525676
0.23823823823823823,-1.861583321524524,0.7311002236504379
0.23923923923923923,-1.8604314616572086,0.7340264140179307
0.24024024024024024,-1.8592750021655542,0.7369507896204998
0.24124124124124124,-1.8581139459087255,0.7398733432280864
0.24224224224224225,-1.8569482957572514,0.7427940676151363
0.24324324324324326,-1.8557780545930187,0.7457129555606172
0.24424424424424424,-1.8546032253092646,0.7486299998480377
0.24524524524524524,-1.85342381081057,0.7515451932654644
0.24624624624624625,-1.8522398140128518,0.7544585286055397
0.24724724724724725,-1.851051237843356,0.7573699986655001
0.24824824824824826,-1.84985808524065,0.7602795962471934
0.24924924924924924,-1.8486603591546167,0.763187314157097
0.2502502502502503,-1.8474580625464452,0.7660931452063354
0.25125125125125125,-1.8462511983886247,0.7689970822106982
0.25225225225225223,-1.8450397696649374,0.7718991179906574
0.25325325325325326,-1.8438237793704502,0.7747992453713861
0.25425425425425424,-1.842603230511508,0.7776974571827749
0.2552552552552553,-1.8413781261057263,0.780593746259451
0.25625625625625625,-1.8401484691819827,0.7834881054407946
0.25725725725725723,-1.838914262780411,0.7863805275709578
0.25825825825825827,-1.837675509952392,0.7892710054988816
0.25925925925925924,-1.836432213760548,0.7921595320783136
0.2602602602602603,-1.835184377278733,0.795046100167826
0.26126126126126126,-1.8339320035920268,0.7979307026308327
0.26226226226226224,-1.8326750957967262,0.8008133323356077
0.26326326326326327,-1.8314136570003383,0.8036939821553023
0.26426426426426425,-1.830147690321572,0.8065726449679624
0.2652652652652653,-1.8288771988903314,0.809449313656547
0.26626626626626626,-1.8276021858477065,0.8123239811089448
0.2672672672672673,-1.8263226543459665,0.8151966402179925
0.2682682682682683,-1.8250386075485523,0.8180672838814919
0.26926926926926925,-1.8237500486300675,0.8209359050022276
0.2702702702702703,-1.8224569807762714,0.8238024964879853
0.27127127127127126,-1.821159407184071,0.8266670512515679
0.2722722722722723,-1.8198573310615136,0.8295295622108141
0.2732732732732733,-1.818550755627777,0.8323900222886153
0.27427427427427425,-1.817239684113164,0.8352484244129338
0.2752752752752753,-1.8159241197590923,0.8381047615168199
0.27627627627627627,-1.8146040658180889,0.8409590265384286
0.2772772772772773,-1.8132795255537786,0.8438112124210387
0.2782782782782783,-1.8119505022408797,0.8466613121130688
0.27927927927927926,-1.8106169991651935,0.8495093185680955
0.2802802802802803,-1.8092790196235962,0.8523552247448707
0.28128128128128127,-1.8079365669240322,0.8551990236073381
0.2822822822822823,-1.8065896443855047,0.8580407081246528
0.2832832832832833,-1.805238255338068,0.8608802712711962
0.28428428428428426,-1.8038824031228191,0.8637177060265946
0.2852852852852853,-1.8025220910918895,0.866553005375737
0.2862862862862863,-1.8011573226084368,0.8693861623087912
0.2872872872872873,-1.7997881010466363,0.8722171698212221
0.2882882882882883,-1.7984144297916735,0.8750460209138086
0.28928928928928926,-1.7970363122397346,0.877872708592661
0.2902902902902903,-1.7956537517979982,0.8806972258692386
0.2912912912912913,-1.7942667518846283,0.8835195657603663
0.2922922922922923,-1.7928753159287634,0.8863397212882522
0.2932932932932933,-1.791479447370511,0.8891576854805052
0.29429429429429427,-1.7900791496609358,0.8919734513701519
0.2952952952952953,-1.7886744262620544,0.8947870119956538
0.2962962962962963,-1.7872652806468246,0.8975983604009242
0.2972972972972973,-1.785851716299137,0.9004074896353466
0.2982982982982983,-1.7844337367138075,0.90321439275379
0.2992992992992993,-1.7830113453965677,0.9060190628166281
0.3003003003003003,-1.7815845458640567,0.9088214928897549
0.3013013013013013,-1.780153341643812,0.9116216760446023
0.3023023023023023,-1.7787177362742606,0.9144196053581582
0.3033033033033033,-1.7772777333047116,0.9172152739129817
0.30430430430430433,-1.775833336295346,0.920008674797222
0.3053053053053053,-1.774384548817208,0.9227998011046343
0.3063063063063063,-1.7729313744521973,0.9255886459345979
0.3073073073073073,-1.7714738167930588,0.9283752023921322
0.3083083083083083,-1.7700118794433748,0.9311594635879141
0.30930930930930933,-1.7685455660175555,0.9339414226382962
0.3103103103103103,-1.7670748801408305,0.936721072665321
0.3113113113113113,-1.7655998254492393,0.9394984067967416
0.3123123123123123,-1.7641204055896227,0.9422734181660357
0.3133133133133133,-1.762636624219614,0.9450460999124238
0.31431431431431434,-1.7611484850076293,0.9478164451808864
0.3153153153153153,-1.7596559916328587,0.9505844471221798
0.3163163163163163,-1.7581591477852578,0.9533500988928547
0.3173173173173173,-1.7566579571655374,0.956113393655272
0.3183183183183183,-1.7551524234851552,0.9588743245776195
0.31931931931931934,-1.7536425504663071,0.9616328848339296
0.3203203203203203,-1.7521283418419165,0.9643890676040954
0.3213213213213213,-1.750609801355626,0.9671428660738887
0.32232232232232233,-1.7490869327617884,0.9698942734349756
0.3233233233233233,-1.7475597398254572,0.9726432828849334
0.32432432432432434,-1.7460282263223763,0.9753898876272691
0.3253253253253253,-1.7444923960389727,0.9781340808714337
0.3263263263263263,-1.742952252772345,0.9808758558328409
0.32732732732732733,-1.741407800330255,0.9836152057328834
0.3283283283283283,-1.7398590425311193,0.9863521237989488
0.32932932932932935,-1.7383059832039978,0.9890866032644374
0.3303303303303303,-1.7367486261885854,0.991818637368779
0.33133133133133136,-1.7351869753352025,0.9945482193574484
0.33233233233233234,-1.7336210345047858,0.9972753424819829
0.3333333333333333,-1.7320508075688774,0.9999999999999999
0.33433433433433435,-1.7304762984096165,1.002722185175212
0.3353353353353353,-1.72889751091973,1.0054418912774434
0.33633633633633636,-1.7273144490025212,1.0081591115826494
0.33733733733733734,-1.7257271165718622,1.010873839372929
0.3383383383383383,-1.724135517552183,1.013586067936545
0.33933933933933935,-1.7225396558784616,1.0162957905679386
